[DEFAULT]

version = diffpy.pdfgetx-2.1.1

# input and output specifications
dataformat = Qnm
inputfile = CdSe_medium.chi
backgroundfile =
outputtype = iq

# PDF calculation setup
mode = xray
composition = Cd Se
bgscale = 1
rpoly = 0.9
qmaxinst = 25
qmin = 0.1
qmax = 25
rmin = 0
rmax = 100
rstep = 0.01

# End of config --------------------------------------------------------------

#### start data
#S 1
#L Q(Ã…$^{-1}$)  intensity(a.u.)
0.105921 0
0.127105 0
0.148289 0
0.169473 0
0.190657 0
0.211841 304.341
0.233025 708.517
0.254209 951.782
0.275394 1351.05
0.296578 1834.75
0.317762 2108.82
0.338946 2222.67
0.36013 2448.33
0.381314 2811.58
0.402498 3183.14
0.423682 3480.18
0.444867 3648.86
0.466051 3786.57
0.487235 3951.69
0.508419 4078.45
0.529603 4229.05
0.550787 4379.35
0.571971 4495.83
0.593155 4619.11
0.61434 4743.99
0.635524 4850.93
0.656708 4971.94
0.677892 5098.15
0.699076 5190.06
0.72026 5273.71
0.741444 5355.56
0.762628 5425.93
0.783813 5521.85
0.804997 5651.05
0.826181 5783.37
0.847365 5924.68
0.868549 6086.33
0.889733 6282.81
0.910917 6510.55
0.932101 6742.3
0.953286 6991.88
0.97447 7269.59
0.995654 7568.98
1.01684 7899
1.03802 8253.35
1.05921 8620.08
1.08039 9002.31
1.10157 9384.91
1.12276 9763.26
1.14394 10132.6
1.16513 10475.4
1.18631 10774.3
1.2075 11029.4
1.22868 11236.5
1.24986 11393.1
1.27105 11478.1
1.29223 11488
1.31342 11426.3
1.3346 11293.9
1.35578 11101.4
1.37697 10859.9
1.39815 10580.2
1.41934 10275.9
1.44052 9968.29
1.4617 9674.05
1.48289 9402.7
1.50407 9146.75
1.52526 8909.45
1.54644 8698.81
1.56763 8529.81
1.58881 8412.71
1.60999 8363.43
1.63118 8385.63
1.65236 8479.03
1.67355 8626.12
1.69473 8806.21
1.71591 8976.82
1.7371 9089.14
1.75828 9112.62
1.77947 9023.81
1.80065 8801.63
1.82183 8451.17
1.84302 8014.65
1.8642 7530.64
1.88539 7042.78
1.90657 6584.49
1.92776 6173.95
1.94894 5824.14
1.97012 5532.34
1.99131 5285.51
2.01249 5075.47
2.03368 4889.2
2.05486 4714.64
2.07604 4552.67
2.09723 4400.05
2.11841 4255.07
2.1396 4125.49
2.16078 4007.21
2.18196 3894.94
2.20315 3792.7
2.22433 3699.67
2.24552 3614.75
2.2667 3538.33
2.28789 3470.3
2.30907 3410.2
2.33025 3357.58
2.35144 3309.9
2.37262 3264.94
2.39381 3223.36
2.41499 3184.09
2.43617 3147.77
2.45736 3116.77
2.47854 3090
2.49973 3067.46
2.52091 3048.82
2.54209 3032.14
2.56328 3019.96
2.58446 3013.3
2.60565 3011.12
2.62683 3015.84
2.64802 3028.88
2.6692 3050.57
2.69038 3083.8
2.71157 3130.79
2.73275 3194.02
2.75394 3279.16
2.77512 3394.1
2.7963 3547.29
2.81749 3737.64
2.83867 3955.55
2.85986 4181.4
2.88104 4383.63
2.90222 4529.16
2.92341 4589.47
2.94459 4556.72
2.96578 4443.8
2.98696 4275.98
3.00815 4089.14
3.02933 3908.66
3.05051 3744.84
3.0717 3602.73
3.09288 3481.2
3.11407 3377.25
3.13525 3288.91
3.15643 3217
3.17762 3168.45
3.1988 3145.97
3.21999 3144.72
3.24117 3162.56
3.26236 3200.95
3.28354 3263.76
3.30472 3353.21
3.32591 3464.53
3.34709 3584.94
3.36828 3692.06
3.38946 3759.95
3.41064 3769.16
3.43183 3712.29
3.45301 3595.39
3.4742 3433.33
3.49538 3248.71
3.51656 3062.35
3.53775 2886.84
3.55893 2732.27
3.58012 2602.26
3.6013 2493.26
3.62249 2401.81
3.64367 2326.3
3.66485 2265.36
3.68604 2216.97
3.70722 2176.88
3.72841 2141.36
3.74959 2109.44
3.77077 2080.32
3.79196 2053.63
3.81314 2030.49
3.83433 2011.11
3.85551 1995.29
3.87669 1983.37
3.89788 1974.71
3.91906 1969.32
3.94025 1967.53
3.96143 1968.76
3.98262 1973.61
4.0038 1982.45
4.02498 1994.23
4.04617 2008.3
4.06735 2023.06
4.08854 2035.58
4.10972 2043.86
4.1309 2047.27
4.15209 2045.25
4.17327 2037.14
4.19446 2023.72
4.21564 2006.75
4.23682 1988.13
4.25801 1970.3
4.27919 1956.07
4.30038 1948.72
4.32156 1950.77
4.34275 1963.37
4.36393 1986.51
4.38511 2018.79
4.4063 2057.04
4.42748 2096.65
4.44867 2132.72
4.46985 2161.09
4.49103 2177.82
4.51222 2180.92
4.5334 2171.27
4.55459 2150.86
4.57577 2123.14
4.59695 2091.82
4.61814 2059.88
4.63932 2030.05
4.66051 2003.95
4.68169 1982.64
4.70288 1966.79
4.72406 1955.98
4.74524 1949.97
4.76643 1948.73
4.78761 1952.52
4.8088 1961.69
4.82998 1976.32
4.85116 1996.83
4.87235 2023.63
4.89353 2057.21
4.91472 2098.08
4.9359 2146.16
4.95708 2201.14
4.97827 2261.2
4.99945 2319.59
5.02064 2367.4
5.04182 2398.63
5.06301 2409.36
5.08419 2398.77
5.10537 2370.88
5.12656 2333.89
5.14774 2296.67
5.16893 2264.03
5.19011 2238.58
5.21129 2222.58
5.23248 2216.53
5.25366 2218.99
5.27485 2226.66
5.29603 2234.93
5.31722 2239.15
5.3384 2235.87
5.35958 2223.35
5.38077 2201.25
5.40195 2170.99
5.42314 2135.2
5.44432 2097.42
5.4655 2061.35
5.48669 2028.66
5.50787 2000.03
5.52906 1976.1
5.55024 1956.6
5.57142 1941.08
5.59261 1929.71
5.61379 1922.26
5.63498 1918.24
5.65616 1917.75
5.67735 1920.31
5.69853 1925.25
5.71971 1932.27
5.7409 1940.75
5.76208 1949.94
5.78327 1958.65
5.80445 1965.9
5.82563 1971.79
5.84682 1976.07
5.868 1977.29
5.88919 1973.86
5.91037 1966.02
5.93155 1955.98
5.95274 1946.47
5.97392 1940.36
5.99511 1940.59
6.01629 1948.42
6.03748 1961.91
6.05866 1976.62
6.07984 1987.92
6.10103 1993.04
6.12221 1990.05
6.1434 1977.31
6.16458 1954.55
6.18576 1923.75
6.20695 1888.03
6.22813 1851.11
6.24932 1817.14
6.2705 1788.94
6.29168 1767.79
6.31287 1753.41
6.33405 1744.72
6.35524 1740.72
6.37642 1740.51
6.39761 1743.28
6.41879 1747.89
6.43997 1752.4
6.46116 1754.95
6.48234 1754.35
6.50353 1750.33
6.52471 1743.4
6.54589 1734.21
6.56708 1723.55
6.58826 1712.24
6.60945 1700.91
6.63063 1689.96
6.65181 1679.94
6.673 1671.24
6.69418 1663.5
6.71537 1656.51
6.73655 1649.48
6.75774 1641.19
6.77892 1631.66
6.8001 1621.41
6.82129 1610.85
6.84247 1600.57
6.86366 1591.01
6.88484 1582.36
6.90602 1575.04
6.92721 1569.41
6.94839 1565.41
6.96958 1562.88
6.99076 1561.6
7.01194 1561.54
7.03313 1562.8
7.05431 1565.38
7.0755 1569.29
7.09668 1573.96
7.11787 1578.25
7.13905 1581.3
7.16023 1582.68
7.18142 1582.82
7.2026 1583.17
7.22379 1584.77
7.24497 1587.98
7.26615 1592.62
7.28734 1598.07
7.30852 1603.42
7.32971 1607.76
7.35089 1610.51
7.37208 1611.34
7.39326 1610.41
7.41444 1607.99
7.43563 1604.28
7.45681 1599.99
7.478 1595.99
7.49918 1593.01
7.52036 1591.95
7.54155 1593.49
7.56273 1597.95
7.58392 1605.27
7.6051 1614.99
7.62628 1626.58
7.64747 1639.33
7.66865 1652.34
7.68984 1664.61
7.71102 1675.25
7.73221 1682.71
7.75339 1685.17
7.77457 1681.99
7.79576 1673.73
7.81694 1662.09
7.83813 1649.7
7.85931 1639.29
7.88049 1632.33
7.90168 1628.18
7.92286 1624.85
7.94405 1620.14
7.96523 1612.23
7.98641 1600.26
8.0076 1585.23
8.02878 1569.31
8.04997 1554.68
8.07115 1543.14
8.09234 1535
8.11352 1529.15
8.1347 1524.2
8.15589 1519.4
8.17707 1514.76
8.19826 1510.71
8.21944 1507.57
8.24062 1505.15
8.26181 1503.55
8.28299 1502.84
8.30418 1502.64
8.32536 1502.75
8.34654 1502.75
8.36773 1502.41
8.38891 1502.04
8.4101 1501.67
8.43128 1501.34
8.45247 1501.07
8.47365 1500.58
8.49483 1499.84
8.51602 1499.25
8.5372 1498.89
8.55839 1498.97
8.57957 1499.88
8.60075 1501.76
8.62194 1504.92
8.64312 1509.55
8.66431 1515.65
8.68549 1522.78
8.70667 1529.43
8.72786 1533.62
8.74904 1534.56
8.77023 1532.27
8.79141 1527.67
8.8126 1522.48
8.83378 1517.7
8.85496 1513.48
8.87615 1509.72
8.89733 1506.15
8.91852 1502.42
8.9397 1498.7
8.96088 1495.13
8.98207 1491.49
9.00325 1487.49
9.02444 1483.35
9.04562 1480.13
9.0668 1477.8
9.08799 1475.95
9.10917 1474.72
9.13036 1473.97
9.15154 1473.85
9.17273 1474.71
9.19391 1476.65
9.21509 1479.55
9.23628 1482.63
9.25746 1484.54
9.27865 1484.31
9.29983 1481.6
9.32101 1477.24
9.3422 1472.67
9.36338 1469.03
9.38457 1466.51
9.40575 1464.45
9.42694 1462.08
9.44812 1459.11
9.4693 1455.94
9.49049 1452.83
9.51167 1449.87
9.53286 1447.25
9.55404 1444.93
9.57522 1442.98
9.59641 1441.65
9.61759 1440.99
9.63878 1440.95
9.65996 1441.12
9.68114 1440.93
9.70233 1440.2
9.72351 1438.99
9.7447 1437.5
9.76588 1436.16
9.78707 1434.95
9.80825 1433.55
9.82943 1432.17
9.85062 1430.83
9.8718 1429.3
9.89299 1427.91
9.91417 1426.8
9.93535 1425.78
9.95654 1424.93
9.97772 1424.43
9.99891 1424.48
10.0201 1425.01
10.0413 1425.98
10.0625 1427.31
10.0836 1428.24
10.1048 1428.12
10.126 1427.01
10.1472 1425.18
10.1684 1423.39
10.1896 1422.08
10.2107 1421.26
10.2319 1420.8
10.2531 1420.3
10.2743 1419.64
10.2955 1418.76
10.3167 1417.67
10.3379 1416.54
10.359 1415.4
10.3802 1414.39
10.4014 1413.67
10.4226 1413.29
10.4438 1413.53
10.465 1414.6
10.4861 1416.37
10.5073 1418.34
10.5285 1419.43
10.5497 1418.74
10.5709 1415.85
10.5921 1411.3
10.6132 1406.16
10.6344 1401.58
10.6556 1397.84
10.6768 1394.24
10.698 1390.26
10.7192 1385.41
10.7404 1379.52
10.7615 1373.22
10.7827 1367.52
10.8039 1362.82
10.8251 1359.01
10.8463 1355.78
10.8675 1352.88
10.8886 1350.37
10.9098 1348.16
10.931 1346.16
10.9522 1344.17
10.9734 1342.03
10.9946 1339.83
11.0157 1337.58
11.0369 1335.13
11.0581 1332.54
11.0793 1330.02
11.1005 1327.7
11.1217 1325.64
11.1428 1323.82
11.164 1322.19
11.1852 1320.72
11.2064 1319.42
11.2276 1318.59
11.2488 1318.12
11.27 1317.23
11.2911 1315.58
11.3123 1313.15
11.3335 1310.26
11.3547 1307.3
11.3759 1304.38
11.3971 1301.75
11.4182 1299.41
11.4394 1297.19
11.4606 1294.95
11.4818 1292.76
11.503 1290.57
11.5242 1288.42
11.5453 1286.67
11.5665 1285.3
11.5877 1284.25
11.6089 1283.43
11.6301 1283.12
11.6513 1283.48
11.6725 1283.83
11.6936 1283.66
11.7148 1282.82
11.736 1281.49
11.7572 1279.97
11.7784 1278.52
11.7996 1277.19
11.8207 1275.78
11.8419 1273.95
11.8631 1271.56
11.8843 1268.92
11.9055 1266.34
11.9267 1263.98
11.9478 1261.96
11.969 1260.16
11.9902 1258.42
12.0114 1256.8
12.0326 1255.21
12.0538 1253.7
12.075 1252.31
12.0961 1250.97
12.1173 1249.65
12.1385 1248.11
12.1597 1246.45
12.1809 1244.88
12.2021 1243.34
12.2232 1241.83
12.2444 1240.33
12.2656 1238.86
12.2868 1237.73
12.308 1236.89
12.3292 1236.17
12.3503 1235.37
12.3715 1234.13
12.3927 1232.53
12.4139 1230.8
12.4351 1229.03
12.4563 1227.43
12.4774 1226.17
12.4986 1225.04
12.5198 1223.8
12.541 1222.58
12.5622 1221.37
12.5834 1220.18
12.6046 1219.33
12.6257 1218.83
12.6469 1218.62
12.6681 1218.76
12.6893 1219.19
12.7105 1219.65
12.7317 1219.65
12.7528 1218.72
12.774 1216.86
12.7952 1214.59
12.8164 1212.58
12.8376 1211.17
12.8588 1209.94
12.8799 1208.24
12.9011 1206.11
12.9223 1203.96
12.9435 1202.11
12.9647 1200.61
12.9859 1199.25
13.0071 1198.04
13.0282 1196.9
13.0494 1195.76
13.0706 1194.77
13.0918 1193.93
13.113 1193.18
13.1342 1192.52
13.1553 1191.72
13.1765 1190.88
13.1977 1190.37
13.2189 1190.19
13.2401 1190.23
13.2613 1190.27
13.2824 1189.93
13.3036 1189.49
13.3248 1189.16
13.346 1188.39
13.3672 1187.01
13.3884 1185.38
13.4096 1183.56
13.4307 1181.65
13.4519 1180.14
13.4731 1178.89
13.4943 1177.67
13.5155 1176.67
13.5367 1175.68
13.5578 1174.57
13.579 1173.59
13.6002 1172.97
13.6214 1172.86
13.6426 1172.85
13.6638 1172.6
13.6849 1171.84
13.7061 1170.46
13.7273 1168.49
13.7485 1165.96
13.7697 1163.43
13.7909 1161.31
13.812 1159.47
13.8332 1157.97
13.8544 1156.84
13.8756 1155.61
13.8968 1154.04
13.918 1152.45
13.9392 1150.96
13.9603 1149.45
13.9815 1148.05
14.0027 1146.76
14.0239 1145.28
14.0451 1143.62
14.0663 1141.84
14.0874 1140.06
14.1086 1138.48
14.1298 1136.95
14.151 1135.42
14.1722 1133.97
14.1934 1132.62
14.2145 1131.41
14.2357 1130.23
14.2569 1129.26
14.2781 1128.29
14.2993 1126.94
14.3205 1125.46
14.3417 1123.96
14.3628 1122.52
14.384 1121.15
14.4052 1119.71
14.4264 1118.24
14.4476 1116.99
14.4688 1115.91
14.4899 1114.72
14.5111 1113.57
14.5323 1112.55
14.5535 1111.56
14.5747 1110.56
14.5959 1109.53
14.617 1108.45
14.6382 1107.23
14.6594 1106.07
14.6806 1105.03
14.7018 1103.8
14.723 1102.28
14.7442 1100.57
14.7653 1098.77
14.7865 1097.01
14.8077 1095.27
14.8289 1093.54
14.8501 1091.97
14.8713 1090.44
14.8924 1088.96
14.9136 1087.52
14.9348 1085.98
14.956 1084.6
14.9772 1083.36
14.9984 1082.02
15.0195 1080.72
15.0407 1079.57
15.0619 1078.56
15.0831 1077.56
15.1043 1076.48
15.1255 1075.23
15.1466 1073.77
15.1678 1072.08
15.189 1070.19
15.2102 1068.36
15.2314 1066.74
15.2526 1065.31
15.2738 1063.89
15.2949 1062.56
15.3161 1061.31
15.3373 1060.06
15.3585 1058.79
15.3797 1057.57
15.4009 1056.39
15.422 1055.26
15.4432 1053.98
15.4644 1052.61
15.4856 1051.32
15.5068 1049.79
15.528 1048.21
15.5491 1046.7
15.5703 1044.99
15.5915 1043.13
15.6127 1041.27
15.6339 1039.5
15.6551 1037.98
15.6763 1036.67
15.6974 1035.46
15.7186 1034.19
15.7398 1032.87
15.761 1031.58
15.7822 1030.33
15.8034 1029.03
15.8245 1027.72
15.8457 1026.42
15.8669 1025.12
15.8881 1023.84
15.9093 1022.55
15.9305 1021.26
15.9516 1019.99
15.9728 1018.76
15.994 1017.49
16.0152 1016.16
16.0364 1014.89
16.0576 1013.72
16.0787 1012.52
16.0999 1011.25
16.1211 1009.96
16.1423 1008.72
16.1635 1007.7
16.1847 1006.86
16.2059 1005.96
16.227 1004.99
16.2482 1003.97
16.2694 1002.78
16.2906 1001.47
16.3118 1000.1
16.333 998.643
16.3541 997.106
16.3753 995.535
16.3965 993.893
16.4177 992.304
16.4389 990.903
16.4601 989.596
16.4812 988.252
16.5024 987.032
16.5236 985.959
16.5448 984.874
16.566 983.722
16.5872 982.39
16.6084 980.913
16.6295 979.447
16.6507 978.089
16.6719 976.793
16.6931 975.495
16.7143 974.274
16.7355 973.088
16.7566 971.848
16.7778 970.609
16.799 969.404
16.8202 968.112
16.8414 966.772
16.8626 965.45
16.8837 964.215
16.9049 963.062
16.9261 961.992
16.9473 960.988
16.9685 959.963
16.9897 958.965
17.0109 957.999
17.032 956.937
17.0532 955.603
17.0744 954.136
17.0956 952.564
17.1168 951.07
17.138 949.737
17.1591 948.393
17.1803 947.126
17.2015 945.954
17.2227 944.872
17.2439 943.73
17.2651 942.609
17.2862 941.611
17.3074 940.557
17.3286 939.398
17.3498 938.213
17.371 937.03
17.3922 935.794
17.4133 934.71
17.4345 933.601
17.4557 932.363
17.4769 931.142
17.4981 929.945
17.5193 928.746
17.5405 927.541
17.5616 926.42
17.5828 925.345
17.604 924.226
17.6252 923.093
17.6464 922.066
17.6676 921.144
17.6887 920.241
17.7099 919.294
17.7311 918.354
17.7523 917.391
17.7735 916.35
17.7947 915.193
17.8158 913.971
17.837 912.723
17.8582 911.384
17.8794 909.967
17.9006 908.579
17.9218 907.309
17.943 906.124
17.9641 905.006
17.9853 903.923
18.0065 902.838
18.0277 901.775
18.0489 900.754
18.0701 899.772
18.0912 898.795
18.1124 897.766
18.1336 896.802
18.1548 895.876
18.176 894.747
18.1972 893.492
18.2183 892.229
18.2395 890.956
18.2607 889.733
18.2819 888.549
18.3031 887.448
18.3243 886.417
18.3455 885.336
18.3666 884.286
18.3878 883.327
18.409 882.371
18.4302 881.361
18.4514 880.225
18.4726 878.98
18.4937 877.727
18.5149 876.479
18.5361 875.213
18.5573 873.982
18.5785 872.803
18.5997 871.58
18.6208 870.342
18.642 869.104
18.6632 867.816
18.6844 866.638
18.7056 865.609
18.7268 864.458
18.7479 863.3
18.7691 862.23
18.7903 861.079
18.8115 859.906
18.8327 858.874
18.8539 857.929
18.8751 856.818
18.8962 855.626
18.9174 854.393
18.9386 853.02
18.9598 851.672
18.981 850.432
19.0022 849.296
19.0233 848.276
19.0445 847.337
19.0657 846.535
19.0869 845.478
19.1081 844.174
19.1293 842.935
19.1504 841.747
19.1716 840.671
19.1928 839.571
19.214 838.329
19.2352 836.981
19.2564 835.605
19.2776 834.259
19.2987 833.018
19.3199 831.805
19.3411 830.604
19.3623 829.438
19.3835 828.232
19.4047 826.98
19.4258 825.72
19.447 824.445
19.4682 823.236
19.4894 822.153
19.5106 821.042
19.5318 819.848
19.5529 818.72
19.5741 817.574
19.5953 816.356
19.6165 815.124
19.6377 813.86
19.6589 812.681
19.6801 811.662
19.7012 810.66
19.7224 809.411
19.7436 808.084
19.7648 806.903
19.786 805.734
19.8072 804.501
19.8283 803.358
19.8495 802.259
19.8707 801.078
19.8919 799.876
19.9131 798.645
19.9343 797.422
19.9554 796.158
19.9766 794.911
19.9978 793.753
20.019 792.516
20.0402 791.245
20.0614 790.135
20.0825 789.029
20.1037 787.942
20.1249 786.858
20.1461 785.739
20.1673 784.643
20.1885 783.439
20.2097 782.254
20.2308 781.044
20.252 779.813
20.2732 778.676
20.2944 777.58
20.3156 776.524
20.3368 775.454
20.3579 774.545
20.3791 773.665
20.4003 772.645
20.4215 771.535
20.4427 770.353
20.4639 769.16
20.485 767.881
20.5062 766.561
20.5274 765.353
20.5486 764.222
20.5698 763.087
20.591 762
20.6122 760.99
20.6333 759.979
20.6545 758.861
20.6757 757.696
20.6969 756.398
20.7181 755.236
20.7393 754.347
20.7604 753.358
20.7816 752.319
20.8028 751.253
20.824 750.119
20.8452 749.066
20.8664 748.018
20.8875 746.887
20.9087 745.841
20.9299 744.8
20.9511 743.699
20.9723 742.661
20.9935 741.645
21.0147 740.601
21.0358 739.524
21.057 738.403
21.0782 737.298
21.0994 736.232
21.1206 735.093
21.1418 733.972
21.1629 732.919
21.1841 731.848
21.2053 730.735
21.2265 729.584
21.2477 728.457
21.2689 727.321
21.29 726.211
21.3112 725.138
21.3324 724.111
21.3536 723.122
21.3748 722.04
21.396 720.94
21.4171 719.879
21.4383 718.838
21.4595 717.774
21.4807 716.755
21.5019 715.663
21.5231 714.518
21.5443 713.495
21.5654 712.461
21.5866 711.401
21.6078 710.352
21.629 709.349
21.6502 708.27
21.6714 707.125
21.6925 706.08
21.7137 705.081
21.7349 704.06
21.7561 702.792
21.7773 701.396
21.7985 700.431
21.8196 699.601
21.8408 698.601
21.862 697.53
21.8832 696.423
21.9044 695.37
21.9256 694.318
21.9468 693.283
21.9679 692.266
21.9891 691.205
22.0103 690.086
22.0315 688.997
22.0527 687.918
22.0739 686.756
22.095 685.663
22.1162 684.621
22.1374 683.504
22.1586 682.414
22.1798 681.351
22.201 680.258
22.2221 679.198
22.2433 678.154
22.2645 677.033
22.2857 675.867
22.3069 674.793
22.3281 673.801
22.3493 672.737
22.3704 671.677
22.3916 670.667
22.4128 669.617
22.434 668.547
22.4552 667.522
22.4764 666.487
22.4975 665.466
22.5187 664.42
22.5399 663.349
22.5611 662.278
22.5823 661.148
22.6035 660.031
22.6246 658.978
22.6458 657.956
22.667 656.884
22.6882 655.773
22.7094 654.748
22.7306 653.703
22.7517 652.686
22.7729 651.73
22.7941 650.59
22.8153 649.416
22.8365 648.407
22.8577 647.434
22.8789 646.388
22.9 645.317
22.9212 644.23
22.9424 643.2
22.9636 642.121
22.9848 641.013
23.006 640.024
23.0271 638.994
23.0483 637.916
23.0695 636.879
23.0907 635.867
23.1119 634.838
23.1331 633.798
23.1542 632.721
23.1754 631.673
23.1966 630.671
23.2178 629.637
23.239 628.624
23.2602 627.627
23.2814 626.565
23.3025 625.497
23.3237 624.454
23.3449 623.428
23.3661 622.43
23.3873 621.404
23.4085 620.357
23.4296 619.256
23.4508 618.164
23.472 617.103
23.4932 616.047
23.5144 615.04
23.5356 614.028
23.5567 612.969
23.5779 611.938
23.5991 610.941
23.6203 609.892
23.6415 608.815
23.6627 607.713
23.6839 606.707
23.705 605.773
23.7262 604.723
23.7474 603.681
23.7686 602.804
23.7898 601.852
23.811 600.796
23.8321 599.855
23.8533 598.845
23.8745 597.699
23.8957 596.621
23.9169 595.623
23.9381 594.59
23.9592 593.532
23.9804 592.523
24.0016 591.522
24.0228 590.477
24.044 589.432
24.0652 588.335
24.0863 587.235
24.1075 586.25
24.1287 585.349
24.1499 584.367
24.1711 583.32
24.1923 582.326
24.2135 581.359
24.2346 580.422
24.2558 579.422
24.277 578.301
24.2982 577.221
24.3194 576.339
24.3406 575.471
24.3617 574.47
24.3829 572.024
24.4041 569.656
24.4253 569.363
24.4465 569.24
24.4677 568.535
24.4888 567.698
24.51 566.91
24.5312 565.963
24.5524 564.911
24.5736 563.967
24.5948 563.079
24.616 562.153
24.6371 561.139
24.6583 560.126
24.6795 559.206
24.7007 558.311
24.7219 557.25
24.7431 556.388
24.7642 555.797
24.7854 554.961
24.8066 553.941
24.8278 553.004
24.849 552.11
24.8702 551.12
24.8913 550.089
24.9125 549.167
24.9337 548.189
24.9549 547.188
24.9761 546.317
24.9973 545.268
